Wavelength (nm);Interpolated Responsivity (A/W);Quantum Efficiency
350;0.05240;0.18562
351;0.05258;0.18575
352;0.05277;0.18587
353;0.05279;0.18541
354;0.05279;0.18489
355;0.05279;0.18437
356;0.05279;0.18385
357;0.05284;0.18352
358;0.05303;0.18366
359;0.05322;0.18380
360;0.05341;0.18394
361;0.05360;0.18408
362;0.05391;0.18464
363;0.05428;0.18541
364;0.05466;0.18618
365;0.05503;0.18694
366;0.05541;0.18770
367;0.05578;0.18845
368;0.05616;0.18920
369;0.05653;0.18995
370;0.05691;0.19069
371;0.05728;0.19143
372;0.05766;0.19216
373;0.05803;0.19289
374;0.05841;0.19362
375;0.05878;0.19434
376;0.05931;0.19557
377;0.05987;0.19690
378;0.06044;0.19823
379;0.06100;0.19955
380;0.06156;0.20086
381;0.06212;0.20216
382;0.06268;0.20345
383;0.06324;0.20473
384;0.06381;0.20601
385;0.06448;0.20764
386;0.06523;0.20950
387;0.06597;0.21136
388;0.06672;0.21321
389;0.06747;0.21505
390;0.06822;0.21689
391;0.06898;0.21872
392;0.06973;0.22054
393;0.07048;0.22235
394;0.07130;0.22435
395;0.07223;0.22672
396;0.07317;0.22908
397;0.07410;0.23142
398;0.07504;0.23376
399;0.07598;0.23609
400;0.07691;0.23840
401;0.07785;0.24071
402;0.07879;0.24300
403;0.07975;0.24535
404;0.08087;0.24819
405;0.08200;0.25102
406;0.08312;0.25384
407;0.08425;0.25664
408;0.08528;0.25914
409;0.08621;0.26135
410;0.08715;0.26355
411;0.08809;0.26574
412;0.08903;0.26792
413;0.09029;0.27107
414;0.09161;0.27434
415;0.09292;0.27759
416;0.09423;0.28083
417;0.09549;0.28391
418;0.09661;0.28656
419;0.09774;0.28921
420;0.09886;0.29184
421;0.09998;0.29445
422;0.10123;0.29742
423;0.10254;0.30056
424;0.10386;0.30369
425;0.10517;0.30681
426;0.10648;0.30991
427;0.10779;0.31299
428;0.10911;0.31606
429;0.11042;0.31912
430;0.11173;0.32216
431;0.11304;0.32519
432;0.11435;0.32820
433;0.11566;0.33119
434;0.11697;0.33417
435;0.11829;0.33714
436;0.11960;0.34010
437;0.12091;0.34304
438;0.12222;0.34597
439;0.12354;0.34889
440;0.12485;0.35180
441;0.12616;0.35469
442;0.12747;0.35757
443;0.12879;0.36044
444;0.13010;0.36329
445;0.13153;0.36648
446;0.13307;0.36991
447;0.13460;0.37333
448;0.13613;0.37674
449;0.13753;0.37976
450;0.13884;0.38252
451;0.14015;0.38528
452;0.14146;0.38802
453;0.14277;0.39075
454;0.14408;0.39347
455;0.14539;0.39619
456;0.14671;0.39889
457;0.14802;0.40157
458;0.14941;0.40447
459;0.15094;0.40773
460;0.15248;0.41097
461;0.15401;0.41420
462;0.15545;0.41716
463;0.15676;0.41977
464;0.15807;0.42237
465;0.15938;0.42495
466;0.16069;0.42753
467;0.16218;0.43056
468;0.16371;0.43370
469;0.16524;0.43682
470;0.16677;0.43993
471;0.16812;0.44254
472;0.16943;0.44506
473;0.17074;0.44755
474;0.17205;0.45004
475;0.17337;0.45252
476;0.17468;0.45498
477;0.17599;0.45744
478;0.17730;0.45988
479;0.17861;0.46231
480;0.18005;0.46508
481;0.18159;0.46806
482;0.18312;0.47103
483;0.18465;0.47399
484;0.18604;0.47656
485;0.18735;0.47894
486;0.18866;0.48130
487;0.18997;0.48365
488;0.19129;0.48600
489;0.19260;0.48833
490;0.19391;0.49064
491;0.19522;0.49295
492;0.19653;0.49525
493;0.19793;0.49778
494;0.19946;0.50062
495;0.20100;0.50344
496;0.20253;0.50625
497;0.20396;0.50880
498;0.20527;0.51105
499;0.20658;0.51329
500;0.20790;0.51551
501;0.20921;0.51773
502;0.21052;0.51994
503;0.21183;0.52214
504;0.21314;0.52432
505;0.21445;0.52650
506;0.21581;0.52880
507;0.21734;0.53150
508;0.21887;0.53419
509;0.22041;0.53687
510;0.22194;0.53954
511;0.22347;0.54220
512;0.22500;0.54485
513;0.22653;0.54749
514;0.22799;0.54995
515;0.22931;0.55205
516;0.23062;0.55413
517;0.23193;0.55621
518;0.23324;0.55827
519;0.23471;0.56069
520;0.23624;0.56326
521;0.23777;0.56582
522;0.23929;0.56837
523;0.24082;0.57091
524;0.24236;0.57344
525;0.24389;0.57597
526;0.24542;0.57848
527;0.24678;0.58058
528;0.24809;0.58257
529;0.24940;0.58454
530;0.25072;0.58651
531;0.25207;0.58855
532;0.25359;0.59101
533;0.25512;0.59346
534;0.25665;0.59590
535;0.25818;0.59833
536;0.25971;0.60075
537;0.26124;0.60317
538;0.26278;0.60558
539;0.26431;0.60798
540;0.26584;0.61037
541;0.26737;0.61275
542;0.26890;0.61512
543;0.27043;0.61748
544;0.27196;0.61983
545;0.27349;0.62217
546;0.27502;0.62451
547;0.27655;0.62683
548;0.27808;0.62915
549;0.27961;0.63147
550;0.28114;0.63377
551;0.28267;0.63606
552;0.28421;0.63835
553;0.28574;0.64063
554;0.28727;0.64290
555;0.28880;0.64516
556;0.29033;0.64741
557;0.29186;0.64965
558;0.29339;0.65189
559;0.29492;0.65411
560;0.29645;0.65634
561;0.29798;0.65855
562;0.29951;0.66076
563;0.30093;0.66271
564;0.30224;0.66442
565;0.30356;0.66612
566;0.30487;0.66782
567;0.30618;0.66952
568;0.30769;0.67162
569;0.30922;0.67377
570;0.31074;0.67592
571;0.31227;0.67805
572;0.31380;0.68019
573;0.31534;0.68231
574;0.31687;0.68443
575;0.31840;0.68655
576;0.31993;0.68865
577;0.32146;0.69075
578;0.32299;0.69284
579;0.32452;0.69492
580;0.32606;0.69700
581;0.32759;0.69906
582;0.32912;0.70112
583;0.33065;0.70318
584;0.33218;0.70522
585;0.33371;0.70726
586;0.33524;0.70928
587;0.33674;0.71125
588;0.33805;0.71281
589;0.33937;0.71437
590;0.34068;0.71591
591;0.34199;0.71746
592;0.34341;0.71922
593;0.34494;0.72121
594;0.34648;0.72319
595;0.34801;0.72517
596;0.34954;0.72713
597;0.35107;0.72909
598;0.35259;0.73104
599;0.35412;0.73298
600;0.35565;0.73492
601;0.35719;0.73686
602;0.35872;0.73879
603;0.36025;0.74071
604;0.36164;0.74235
605;0.36296;0.74382
606;0.36427;0.74527
607;0.36558;0.74673
608;0.36690;0.74818
609;0.36842;0.75006
610;0.36995;0.75194
611;0.37148;0.75381
612;0.37300;0.75566
613;0.37431;0.75708
614;0.37563;0.75850
615;0.37694;0.75991
616;0.37825;0.76132
617;0.37966;0.76291
618;0.38119;0.76475
619;0.38272;0.76658
620;0.38425;0.76841
621;0.38568;0.77002
622;0.38699;0.77139
623;0.38830;0.77276
624;0.38961;0.77413
625;0.39092;0.77549
626;0.39223;0.77685
627;0.39355;0.77821
628;0.39486;0.77956
629;0.39617;0.78091
630;0.39754;0.78235
631;0.39907;0.78412
632;0.40060;0.78589
633;0.40213;0.78764
634;0.40360;0.78927
635;0.40491;0.79059
636;0.40622;0.79190
637;0.40753;0.79321
638;0.40884;0.79451
639;0.41015;0.79581
640;0.41147;0.79711
641;0.41278;0.79841
642;0.41409;0.79970
643;0.41540;0.80099
644;0.41672;0.80227
645;0.41803;0.80355
646;0.41934;0.80483
647;0.42065;0.80610
648;0.42197;0.80736
649;0.42328;0.80862
650;0.42459;0.80988
651;0.42590;0.81113
652;0.42721;0.81238
653;0.42852;0.81363
654;0.42983;0.81487
655;0.43115;0.81611
656;0.43246;0.81735
657;0.43377;0.81858
658;0.43508;0.81981
659;0.43640;0.82104
660;0.43771;0.82226
661;0.43902;0.82348
662;0.44033;0.82469
663;0.44165;0.82590
664;0.44296;0.82711
665;0.44427;0.82831
666;0.44558;0.82951
667;0.44690;0.83070
668;0.44821;0.83189
669;0.44952;0.83308
670;0.45083;0.83426
671;0.45214;0.83544
672;0.45345;0.83662
673;0.45476;0.83779
674;0.45608;0.83896
675;0.45739;0.84013
676;0.45870;0.84130
677;0.46001;0.84246
678;0.46133;0.84362
679;0.46264;0.84477
680;0.46395;0.84592
681;0.46526;0.84706
682;0.46657;0.84820
683;0.46788;0.84934
684;0.46919;0.85048
685;0.47041;0.85144
686;0.47153;0.85223
687;0.47266;0.85302
688;0.47378;0.85380
689;0.47491;0.85459
690;0.47603;0.85537
691;0.47716;0.85615
692;0.47829;0.85694
693;0.47941;0.85771
694;0.48059;0.85858
695;0.48190;0.85968
696;0.48321;0.86078
697;0.48452;0.86188
698;0.48583;0.86297
699;0.48702;0.86384
700;0.48814;0.86460
701;0.48927;0.86536
702;0.49039;0.86611
703;0.49152;0.86686
704;0.49264;0.86761
705;0.49377;0.86836
706;0.49490;0.86911
707;0.49602;0.86986
708;0.49715;0.87060
709;0.49827;0.87134
710;0.49940;0.87207
711;0.50052;0.87281
712;0.50164;0.87354
713;0.50277;0.87427
714;0.50389;0.87500
715;0.50502;0.87572
716;0.50614;0.87644
717;0.50726;0.87717
718;0.50839;0.87789
719;0.50951;0.87860
720;0.51064;0.87932
721;0.51176;0.88003
722;0.51289;0.88074
723;0.51401;0.88145
724;0.51513;0.88216
725;0.51626;0.88287
726;0.51738;0.88357
727;0.51851;0.88427
728;0.51963;0.88497
729;0.52076;0.88567
730;0.52188;0.88637
731;0.52294;0.88696
732;0.52388;0.88733
733;0.52482;0.88771
734;0.52576;0.88808
735;0.52669;0.88846
736;0.52776;0.88906
737;0.52889;0.88974
738;0.53001;0.89042
739;0.53114;0.89110
740;0.53224;0.89175
741;0.53318;0.89212
742;0.53412;0.89248
743;0.53506;0.89285
744;0.53599;0.89321
745;0.53702;0.89372
746;0.53815;0.89439
747;0.53927;0.89506
748;0.54039;0.89573
749;0.54152;0.89639
750;0.54248;0.89679
751;0.54342;0.89714
752;0.54436;0.89750
753;0.54530;0.89785
754;0.54623;0.89820
755;0.54717;0.89855
756;0.54810;0.89889
757;0.54904;0.89924
758;0.54998;0.89958
759;0.55091;0.89993
760;0.55185;0.90027
761;0.55279;0.90062
762;0.55373;0.90096
763;0.55466;0.90131
764;0.55560;0.90165
765;0.55654;0.90199
766;0.55748;0.90233
767;0.55842;0.90267
768;0.55935;0.90301
769;0.56029;0.90334
770;0.56122;0.90368
771;0.56216;0.90401
772;0.56310;0.90434
773;0.56403;0.90467
774;0.56497;0.90501
775;0.56591;0.90534
776;0.56685;0.90567
777;0.56775;0.90595
778;0.56850;0.90598
779;0.56925;0.90601
780;0.57000;0.90604
781;0.57075;0.90607
782;0.57160;0.90627
783;0.57254;0.90659
784;0.57348;0.90692
785;0.57442;0.90725
786;0.57536;0.90757
787;0.57612;0.90762
788;0.57687;0.90765
789;0.57762;0.90767
790;0.57837;0.90770
791;0.57918;0.90782
792;0.58011;0.90814
793;0.58105;0.90846
794;0.58198;0.90877
795;0.58292;0.90909
796;0.58372;0.90920
797;0.58447;0.90923
798;0.58522;0.90925
799;0.58597;0.90928
800;0.58672;0.90930
801;0.58747;0.90933
802;0.58822;0.90935
803;0.58897;0.90938
804;0.58972;0.90940
805;0.59047;0.90943
806;0.59122;0.90946
807;0.59197;0.90948
808;0.59272;0.90951
809;0.59348;0.90954
810;0.59423;0.90956
811;0.59498;0.90959
812;0.59573;0.90961
813;0.59647;0.90964
814;0.59722;0.90966
815;0.59797;0.90968
816;0.59872;0.90971
817;0.59947;0.90973
818;0.60022;0.90976
819;0.60097;0.90978
820;0.60172;0.90980
821;0.60247;0.90983
822;0.60322;0.90985
823;0.60397;0.90987
824;0.60453;0.90961
825;0.60509;0.90936
826;0.60565;0.90910
827;0.60621;0.90884
828;0.60685;0.90869
829;0.60760;0.90872
830;0.60835;0.90875
831;0.60910;0.90877
832;0.60985;0.90880
833;0.61046;0.90861
834;0.61102;0.90836
835;0.61158;0.90810
836;0.61214;0.90785
837;0.61273;0.90764
838;0.61348;0.90766
839;0.61423;0.90769
840;0.61498;0.90771
841;0.61573;0.90774
842;0.61638;0.90762
843;0.61694;0.90737
844;0.61751;0.90712
845;0.61807;0.90687
846;0.61863;0.90663
847;0.61919;0.90638
848;0.61975;0.90613
849;0.62032;0.90588
850;0.62088;0.90563
851;0.62144;0.90539
852;0.62200;0.90515
853;0.62256;0.90490
854;0.62313;0.90466
855;0.62369;0.90442
856;0.62413;0.90399
857;0.62450;0.90348
858;0.62488;0.90297
859;0.62525;0.90246
860;0.62564;0.90197
861;0.62620;0.90173
862;0.62676;0.90149
863;0.62733;0.90126
864;0.62789;0.90102
865;0.62845;0.90079
866;0.62901;0.90055
867;0.62957;0.90031
868;0.63014;0.90008
869;0.63070;0.89984
870;0.63110;0.89939
871;0.63148;0.89889
872;0.63185;0.89839
873;0.63223;0.89789
874;0.63260;0.89740
875;0.63298;0.89690
876;0.63335;0.89641
877;0.63373;0.89592
878;0.63410;0.89543
879;0.63459;0.89509
880;0.63515;0.89487
881;0.63571;0.89465
882;0.63628;0.89443
883;0.63684;0.89420
884;0.63722;0.89372
885;0.63759;0.89324
886;0.63797;0.89275
887;0.63834;0.89227
888;0.63872;0.89179
889;0.63909;0.89131
890;0.63947;0.89083
891;0.63984;0.89035
892;0.64022;0.88987
893;0.64045;0.88920
894;0.64064;0.88847
895;0.64083;0.88774
896;0.64102;0.88701
897;0.64123;0.88631
898;0.64160;0.88584
899;0.64198;0.88538
900;0.64235;0.88491
901;0.64273;0.88444
902;0.64310;0.88398
903;0.64348;0.88351
904;0.64385;0.88305
905;0.64423;0.88259
906;0.64460;0.88212
907;0.64481;0.88143
908;0.64499;0.88072
909;0.64518;0.88000
910;0.64537;0.87929
911;0.64555;0.87858
912;0.64574;0.87787
913;0.64593;0.87716
914;0.64612;0.87646
915;0.64631;0.87576
916;0.64649;0.87506
917;0.64668;0.87435
918;0.64687;0.87365
919;0.64705;0.87295
920;0.64724;0.87225
921;0.64743;0.87156
922;0.64762;0.87087
923;0.64780;0.87018
924;0.64799;0.86949
925;0.64818;0.86880
926;0.64837;0.86811
927;0.64855;0.86743
928;0.64874;0.86674
929;0.64893;0.86606
930;0.64911;0.86537
931;0.64930;0.86470
932;0.64949;0.86402
933;0.64968;0.86334
934;0.64987;0.86267
935;0.65005;0.86199
936;0.65024;0.86132
937;0.65043;0.86065
938;0.65061;0.85997
939;0.65069;0.85916
940;0.65069;0.85825
941;0.65069;0.85734
942;0.65069;0.85643
943;0.65069;0.85552
944;0.65069;0.85461
945;0.65069;0.85371
946;0.65069;0.85280
947;0.65069;0.85190
948;0.65069;0.85101
949;0.65069;0.85011
950;0.65069;0.84921
951;0.65069;0.84832
952;0.65069;0.84743
953;0.65069;0.84654
954;0.65069;0.84565
955;0.65069;0.84477
956;0.65069;0.84388
957;0.65069;0.84300
958;0.65069;0.84212
959;0.65069;0.84124
960;0.65069;0.84037
961;0.65069;0.83949
962;0.65060;0.83850
963;0.65041;0.83739
964;0.65022;0.83628
965;0.65004;0.83518
966;0.64985;0.83407
967;0.64966;0.83297
968;0.64948;0.83187
969;0.64929;0.83077
970;0.64910;0.82967
971;0.64891;0.82857
972;0.64872;0.82748
973;0.64854;0.82640
974;0.64835;0.82531
975;0.64817;0.82423
976;0.64786;0.82299
977;0.64748;0.82167
978;0.64711;0.82036
979;0.64673;0.81905
980;0.64635;0.81773
981;0.64579;0.81618
982;0.64523;0.81464
983;0.64466;0.81310
984;0.64410;0.81157
985;0.64354;0.81003
986;0.64298;0.80851
987;0.64241;0.80698
988;0.64185;0.80546
989;0.64129;0.80394
990;0.64043;0.80205
991;0.63949;0.80007
992;0.63855;0.79809
993;0.63762;0.79612
994;0.63664;0.79410
995;0.63552;0.79190
996;0.63440;0.78971
997;0.63327;0.78752
998;0.63215;0.78533
999;0.63079;0.78287
1000;0.62926;0.78018
1001;0.62773;0.77751
1002;0.62620;0.77484
1003;0.62448;0.77194
1004;0.62264;0.76890
1005;0.62081;0.76587
1006;0.61883;0.76267
1007;0.61653;0.75909
1008;0.61424;0.75551
1009;0.61143;0.75131
1010;0.60836;0.74681
1011;0.60530;0.74231
1012;0.60224;0.73783
1013;0.59808;0.73201
1014;0.59349;0.72568
1015;0.58890;0.71935
1016;0.58431;0.71304
1017;0.57623;0.70250
1018;0.56704;0.69062
1019;0.55787;0.67877
1020;0.54868;0.66694
1021;0.53949;0.65513
1022;0.53031;0.64335
1023;0.52113;0.63159
1024;0.51194;0.61985
1025;0.50276;0.60814
1026;0.49358;0.59645
1027;0.48439;0.58478
1028;0.47521;0.57314
1029;0.46707;0.56278
1030;0.46249;0.55671
1031;0.45371;0.54562
1032;0.44453;0.53405
1033;0.43535;0.52252
1034;0.42616;0.51100
1035;0.41698;0.49951
1036;0.41070;0.49151
1037;0.40467;0.48382
1038;0.39549;0.47239
1039;0.38784;0.46281
1040;0.38318;0.45681
1041;0.37399;0.44543
1042;0.36499;0.43428
1043;0.36039;0.42841
1044;0.35250;0.41862
1045;0.34515;0.40951
1046;0.34019;0.40323
1047;0.33100;0.39196
1048;0.32532;0.38487
1049;0.31869;0.37667
1050;0.31310;0.36971
